This is the total particle flux for the flight Bogota-Buenos_Aires
# # Logaritmic energy scale. Resolution used: 20 bins per energy decade
# # 14 column format is:
# # p_in_bin(GeV) N_phot N_e+ N_e- N_mu+ N_mu- N_pi0 N_pi+ N_pi- N_n N_p N_pbar N_others Total_per_bin
4.466836e-05 66302 0 0 0 0 0 0 0 0 0 0 0 66302 
5.011872e-05 3591378 0 0 0 0 0 0 0 0 0 0 0 3591378 
5.623413e-05 4341266 0 0 0 0 0 0 0 0 0 0 0 4341266 
6.309573e-05 5092847 0 0 0 0 0 0 0 0 0 0 0 5092847 
7.079458e-05 5802788 0 0 0 0 0 0 0 0 0 0 0 5802788 
7.943282e-05 6486081 0 0 0 0 0 0 0 0 0 0 0 6486081 
8.912509e-05 7140019 0 0 0 0 0 0 0 0 0 0 0 7140019 
0.0001 7776801 0 0 0 0 0 0 0 0 0 0 0 7776801 
0.0001122018 8450267 0 0 0 0 0 0 0 0 0 0 0 8450267 
0.0001258925 9161644 0 0 0 0 0 0 0 0 0 0 0 9161644 
0.0001412538 9862600 0 0 0 0 0 0 0 0 0 0 0 9862600 
0.0001584893 10585326 0 0 0 0 0 0 0 0 0 0 0 10585326 
0.0001778279 11271449 0 0 0 0 0 0 0 0 0 0 0 11271449 
0.0001995262 11933473 0 0 0 0 0 0 0 0 0 0 0 11933473 
0.0002238721 12558595 99 40247 0 0 0 0 0 0 0 0 0 12598941 
0.0002511886 13149398 257 77433 0 0 0 0 0 0 0 0 0 13227087 
0.0002818383 13693031 402 94332 0 0 0 0 0 0 0 0 0 13787764 
0.0003162278 14149400 675 115208 0 0 0 0 0 0 0 0 0 14265283 
0.0003548134 14551612 1281 139689 0 0 0 0 0 0 0 0 0 14692581 
0.0003981072 14868482 2222 169016 0 0 0 0 0 0 0 0 0 15039720 
0.0004466836 15125588 3478 203173 0 0 0 0 0 0 0 0 0 15332239 
0.0005011872 16221566 5598 242075 0 0 0 0 0 0 0 0 0 16469238 
0.0005623413 15257353 8416 284460 0 0 0 0 0 0 0 0 0 15550230 
0.0006309573 15360607 12662 327799 0 0 0 0 0 0 0 0 0 15701067 
0.0007079458 15440821 17934 375317 0 0 0 0 0 0 0 0 0 15834072 
0.0007943282 15492929 25011 426950 0 0 0 0 0 0 0 0 0 15944890 
0.0008912509 15552394 33875 480109 0 0 0 0 0 0 0 0 0 16066377 
0.001 15612141 45443 531188 0 0 0 0 0 0 0 0 0 16188773 
0.001122018 15640565 57658 581663 0 0 0 0 0 0 0 0 0 16279886 
0.001258925 15703535 72086 633559 0 0 0 0 0 0 0 0 0 16409180 
0.001412538 15748776 88819 680735 0 0 0 0 0 0 0 0 0 16518331 
0.001584893 15797321 105027 715501 0 0 0 0 0 0 0 0 0 16617849 
0.001778279 15854392 133281 804125 0 0 0 0 0 0 0 0 0 16791798 
0.001995262 15900443 165164 887361 0 0 0 0 0 0 0 0 0 16952968 
0.002238721 15961348 200986 964619 0 0 0 0 0 0 0 0 0 17126952 
0.002511886 16012858 238994 1040087 0 0 0 0 0 0 0 0 0 17291939 
0.002818383 16086516 280540 1111783 0 0 0 0 0 0 0 0 0 17478839 
0.003162278 16144676 324208 1178950 0 0 0 0 0 0 0 0 0 17647834 
0.003548134 16172780 368412 1240964 0 0 0 0 0 0 0 0 0 17782156 
0.003981072 16191947 417666 1298042 0 0 0 0 0 0 0 0 0 17907655 
0.004466836 16197233 463131 1354294 0 0 0 0 0 0 0 0 0 18014659 
0.005011872 16169414 514729 1403602 0 0 0 0 0 0 0 0 0 18087744 
0.005623413 16114226 566677 1449565 0 0 0 0 0 0 0 0 0 18130468 
0.006309573 16011066 618167 1486907 0 0 0 0 0 0 0 0 0 18116140 
0.007079458 15863541 667296 1519017 0 0 0 0 0 0 0 0 0 18049854 
0.007943282 15676387 717984 1550045 0 0 0 0 0 0 0 0 0 17944415 
0.008912509 15436390 765196 1571228 0 0 0 0 0 0 0 0 0 17772814 
0.01 15160078 813525 1587291 0 0 0 0 0 0 0 0 0 17560894 
0.01122018 14800809 854685 1598458 0 0 0 0 0 0 0 0 0 17253953 
0.01258925 14402579 895744 1608878 0 0 0 0 0 0 0 0 0 16907200 
0.01412538 13956614 931008 1602001 0 0 0 0 0 0 0 0 0 16489623 
0.01584893 13458368 967580 1600850 0 0 0 0 0 0 0 0 0 16026798 
0.01778279 12931893 994059 1587874 0 0 0 0 0 0 0 0 0 15513826 
0.01995262 12343838 1016528 1571784 0 0 0 0 0 0 0 0 0 14932149 
0.02238721 11736052 1037389 1550317 0 0 0 0 0 0 0 0 0 14323758 
0.02511886 11111102 1055472 1526355 0 0 0 0 0 0 0 0 0 13692928 
0.02818383 10461719 1057552 1493714 0 0 0 0 0 0 0 0 0 13012984 
0.03162278 9846521 1062407 1458884 0 0 0 0 0 0 0 0 0 12367811 
0.03548134 9201219 1059593 1412584 0 0 0 0 0 0 0 0 0 11673395 
0.03981072 8556646 1049532 1370409 0 0 0 0 0 0 0 0 0 10976587 
0.04466836 7907112 1035799 1324287 0 0 0 0 0 0 0 0 0 10267198 
0.05011872 7107884 1021577 1277445 0 0 0 0 0 0 0 0 0 9406905 
0.05623413 6533751 998223 1223421 0 0 0 0 0 0 0 0 0 8755395 
0.06309573 5994449 967387 1172190 0 0 0 0 0 0 0 0 0 8134025 
0.07079458 5485479 934665 1113967 0 0 0 0 0 0 0 0 0 7534111 
0.07943282 5010766 896642 1051491 0 0 0 0 0 0 0 0 0 6958899 
0.08912509 4566566 856119 996456 0 0 0 0 0 0 0 0 0 6419141 
0.1 4166964 819602 940397 0 0 0 0 0 0 0 0 0 5926963 
0.1122018 3814189 769529 877090 59586 65826 0 0 0 0 0 0 0 5586220 
0.1258925 3492724 726506 811889 88907 96242 0 587 669 0 0 0 0 5217523 
0.1412538 3198239 675644 746992 107485 116069 0 838 1034 0 0 0 0 4846299 
0.1584893 2903503 623962 684977 127115 136954 0 1013 1077 0 0 0 0 4478599 
0.1778279 2604139 576058 628148 147682 159957 0 1263 1438 0 0 0 0 4118684 
0.1995262 2324225 531388 575351 169591 180163 0 1600 1720 0 0 0 0 3784038 
0.2238721 2071367 484999 524708 189851 200368 0 1688 1911 0 0 0 0 3474890 
0.2511886 1837040 441397 468145 211770 220150 0 1862 2245 0 0 0 0 3182609 
0.2818383 1621404 396728 418305 229170 238776 0 2222 2524 395820 51958 0 6 3356911 
0.3162278 1428243 354959 374366 246754 255079 0 2408 2498 2764128 350445 14 11 5778904 
0.3548134 1260990 317869 333151 263124 268681 0 2460 2825 3056996 412066 14 28 5918202 
0.3981072 1108452 285381 298900 275997 280988 0 2789 2913 3213629 468636 19 426 5938128 
0.4466836 968854 253669 263199 289700 292674 0 3026 3227 3301485 512983 28 2193 5891036 
0.5011872 844004 223097 230010 299571 299101 0 3133 3381 2785106 533040 33 2680 5223155 
0.5623413 731788 196612 201706 309897 308184 0 3300 3391 2235743 538826 44 2700 4532190 
0.6309573 631247 171336 175075 317773 314857 0 3268 3435 1849167 536132 74 2154 4004519 
0.7079458 546255 149490 151882 326140 319334 0 3287 3570 1465865 533112 89 1411 3500434 
0.7943282 472542 130193 132880 331479 324113 0 3408 3439 1221032 533963 96 982 3154127 
0.8912509 406507 114577 116487 336203 324776 0 3522 3730 1100499 525515 107 784 2932708 
1.0 349212 98110 99375 339389 326022 0 3526 3655 959660 500483 157 660 2680248 
1.122018 299936 84441 84552 338587 324854 0 3551 3668 791135 463126 198 548 2394594 
1.258925 255918 72198 72432 339721 322808 0 3619 3565 655374 426045 199 557 2152435 
1.412538 219900 61304 61132 338542 319669 0 3439 3543 541390 381818 270 722 1931727 
1.584893 188596 52433 52227 334883 313692 0 3591 3457 442276 345665 314 617 1737748 
1.778279 158103 44734 44165 329773 309722 0 3590 3491 366933 313910 387 749 1575555 
1.995262 135588 37538 38271 325787 301334 0 3600 3538 316002 289621 468 782 1452527 
2.238721 114765 31835 30503 318562 292231 0 3439 3420 277845 269680 444 959 1343681 
2.511886 96279 26131 26086 311028 280985 0 3790 3422 249228 254101 543 1108 1252700 
2.818383 81833 22337 21830 299755 268877 0 3465 3455 230834 239499 645 1042 1173569 
3.162278 68692 18224 18541 287261 254573 0 3250 3148 214890 227874 675 1020 1098147 
3.548134 58213 15378 15393 271133 241670 0 3093 3245 201088 215992 761 1090 1027054 
3.981072 48688 12734 12620 253437 223159 0 3261 2954 184379 202713 748 1066 945756 
4.466836 40538 10287 10485 236688 208831 0 3168 2893 168606 187650 867 1210 871222 
5.011872 33530 8385 8368 217405 189327 0 3075 3015 155872 174393 736 1128 795234 
5.623413 28269 6689 6812 199804 172243 0 3109 2904 143091 163236 701 1162 728019 
6.309573 23119 5843 5624 179480 154766 0 2839 2618 131582 153408 774 1066 661119 
7.079458 18823 4632 4581 161651 139420 0 2673 2557 118816 141989 765 1165 597072 
7.943282 15893 3809 3879 143758 121729 0 2639 2389 105494 129670 655 1176 531090 
8.912509 13080 3053 2960 128848 105853 0 2402 2324 92041 121141 638 1200 473538 
10.0 10351 2417 2533 112025 92975 0 2242 2071 78706 111047 586 1240 416191 
11.22018 8564 1986 2021 99370 80395 0 2247 1878 67127 102011 564 1313 367474 
12.58925 6955 1713 1700 86289 67233 0 2016 1821 56065 89486 512 1311 315098 
14.12538 5753 1422 1339 74700 57082 0 1944 1620 45485 77383 525 1312 268566 
15.84893 4612 1122 1141 63536 48472 0 1826 1620 36705 64873 446 1320 225673 
17.78279 3693 825 833 54513 40748 0 1584 1367 29419 53074 333 1347 187736 
19.95262 3044 688 630 44838 32956 0 1469 1290 24271 44401 325 1137 155046 
22.38721 2450 589 542 36963 27635 0 1378 1089 19454 36318 253 1052 127721 
25.11886 2046 440 492 30608 22429 0 1158 943 16246 29433 226 979 105000 
28.18383 1694 382 393 24676 18695 0 1136 976 12942 24317 187 883 86280 
31.62278 1328 256 305 19784 15337 0 1034 842 10313 19591 124 632 69544 
35.48134 1037 206 206 15793 12537 0 996 707 8652 16712 146 558 57549 
39.81072 853 209 198 12738 9897 0 850 666 7007 13219 91 512 46239 
44.66836 671 184 171 9886 8267 0 660 586 5800 10684 91 410 37408 
50.11872 506 107 154 7744 6721 0 608 512 4133 8811 63 314 29673 
56.23413 487 94 135 6482 5299 0 556 476 3025 6666 30 281 23530 
63.09573 410 107 66 4892 4472 0 435 374 2153 5082 55 245 18290 
70.79458 327 77 55 4329 3583 0 418 330 1829 4128 25 256 15356 
79.43282 179 52 58 3372 2981 0 325 292 1777 4727 41 179 13981 
89.12509 204 47 63 2657 2217 0 338 253 1466 3597 28 154 11022 
100.0 160 52 41 2258 1763 0 270 220 1163 2926 36 94 8982 
112.2018 124 36 41 1702 1408 0 223 168 952 2541 19 118 7332 
125.8925 121 14 22 1370 1163 0 212 168 685 1944 25 96 5819 
141.2538 66 14 17 1037 913 0 168 116 589 1466 22 88 4494 
158.4893 52 17 17 875 715 0 138 146 481 1334 11 83 3867 
177.8279 80 6 17 682 580 0 102 94 459 1059 11 50 3138 
199.5262 36 17 8 492 435 0 102 77 352 787 6 52 2362 
223.8721 44 11 6 360 316 0 77 55 267 688 6 58 1887 
251.1886 39 11 6 336 272 0 74 66 253 539 6 41 1642 
281.8383 22 8 0 237 215 0 52 77 182 418 0 17 1227 
316.2278 30 3 17 184 173 0 66 39 171 358 3 22 1064 
354.8134 17 6 3 176 140 0 36 17 135 330 3 19 880 
398.1072 11 3 0 129 99 0 28 33 77 226 6 14 624 
446.6836 22 0 6 77 77 0 28 36 61 201 6 19 531 
501.1872 11 6 0 74 85 0 41 30 66 121 6 3 443 
562.3413 14 0 0 61 44 0 41 19 74 110 3 8 374 
630.9573 8 0 3 39 33 0 14 8 25 80 6 11 226 
707.9458 11 0 0 36 28 0 8 8 28 105 0 3 226 
794.3282 8 0 0 33 19 0 8 8 25 63 0 6 171 
891.2509 3 3 0 19 19 0 11 3 11 47 0 3 118 
1000.0 3 3 0 6 8 0 6 6 14 66 0 0 110 
1122.018 8 0 0 8 8 0 0 6 19 50 0 6 105 
1258.925 0 0 0 3 11 0 3 0 8 22 0 3 50 
1412.538 0 0 0 0 0 0 6 3 14 33 0 8 63 
1584.893 0 3 0 3 3 0 11 0 6 14 0 0 39 
1778.279 0 0 0 0 0 0 3 0 3 17 0 0 22 
1995.262 0 0 0 0 6 0 3 0 3 19 0 3 33 
2238.721 0 0 0 0 3 0 3 3 8 14 0 0 30 
2511.886 0 0 0 0 3 0 0 0 8 6 0 0 17 
2818.383 0 0 0 0 3 0 3 0 8 3 0 0 17 
3162.278 0 0 0 0 0 0 3 0 0 8 0 0 11 
3548.134 0 0 0 0 0 0 0 3 3 3 0 0 8 
3981.072 0 0 0 0 0 0 0 0 0 3 0 0 3 
4466.836 0 0 0 0 0 0 0 0 3 0 0 0 3 
5011.872 0 0 0 0 0 0 0 0 3 6 0 0 8 
5623.413 0 0 0 0 0 0 0 0 0 3 0 0 3 
6309.573 0 0 0 0 0 0 0 0 0 0 0 0 0 
7079.458 0 0 0 0 0 0 0 3 0 3 0 0 6 
7943.282 3 0 0 0 0 0 0 0 0 0 0 0 3 
8912.509 0 0 0 0 0 0 0 0 0 0 0 0 0 
10000.0 0 0 0 0 0 0 0 0 0 0 0 0 0 
11220.18 0 0 0 0 0 0 0 0 0 0 0 0 0 
12589.25 0 0 0 0 0 0 0 0 0 0 0 0 0 
14125.38 0 0 0 0 0 0 0 0 0 0 0 0 0 
15848.93 0 0 0 0 0 0 0 0 0 0 0 0 0 
17782.79 0 0 0 0 0 0 0 0 0 0 0 0 0 
19952.62 0 0 0 0 0 0 0 0 0 0 0 0 0 
22387.21 0 0 0 0 0 0 0 0 0 0 0 0 0 
25118.86 0 0 0 0 0 0 0 0 3 0 0 0 3 
