This is the total particle flux for the flight Johannesburgo-Sydney
# # Logaritmic energy scale. Resolution used: 20 bins per energy decade
# # 14 column format is:
# # p_in_bin(GeV) N_phot N_e+ N_e- N_mu+ N_mu- N_pi0 N_pi+ N_pi- N_n N_p N_pbar N_others Total_per_bin
4.466836e-05 231636 0 0 0 0 0 0 0 0 0 0 0 231636 
5.011872e-05 12596709 0 0 0 0 0 0 0 0 0 0 0 12596709 
5.623413e-05 15246556 0 0 0 0 0 0 0 0 0 0 0 15246556 
6.309573e-05 17895068 0 0 0 0 0 0 0 0 0 0 0 17895068 
7.079458e-05 20429995 0 0 0 0 0 0 0 0 0 0 0 20429995 
7.943282e-05 22889305 0 0 0 0 0 0 0 0 0 0 0 22889305 
8.912509e-05 25261642 0 0 0 0 0 0 0 0 0 0 0 25261642 
0.0001 27578546 0 0 0 0 0 0 0 0 0 0 0 27578546 
0.0001122018 30022273 0 0 0 0 0 0 0 0 0 0 0 30022273 
0.0001258925 32620538 0 0 0 0 0 0 0 0 0 0 0 32620538 
0.0001412538 35195109 0 0 0 0 0 0 0 0 0 0 0 35195109 
0.0001584893 37851748 0 0 0 0 0 0 0 0 0 0 0 37851748 
0.0001778279 40405111 0 0 0 0 0 0 0 0 0 0 0 40405111 
0.0001995262 42839687 0 0 0 0 0 0 0 0 0 0 0 42839687 
0.0002238721 45135463 362 140428 0 0 0 0 0 0 0 0 0 45276253 
0.0002511886 47304237 851 268522 0 0 0 0 0 0 0 0 0 47573610 
0.0002818383 49293848 1469 328683 0 0 0 0 0 0 0 0 0 49624000 
0.0003162278 50994921 2622 401254 0 0 0 0 0 0 0 0 0 51398797 
0.0003548134 52525566 4728 488576 0 0 0 0 0 0 0 0 0 53018869 
0.0003981072 53757304 7938 592388 0 0 0 0 0 0 0 0 0 54357630 
0.0004466836 54806582 12599 714158 0 0 0 0 0 0 0 0 0 55533339 
0.0005011872 58909464 20447 848509 0 0 0 0 0 0 0 0 0 59778420 
0.0005623413 55411422 30979 1000079 0 0 0 0 0 0 0 0 0 56442480 
0.0006309573 55905187 46826 1157869 0 0 0 0 0 0 0 0 0 57109882 
0.0007079458 56258574 65540 1329038 0 0 0 0 0 0 0 0 0 57653152 
0.0007943282 56560693 92720 1514425 0 0 0 0 0 0 0 0 0 58167838 
0.0008912509 56839758 125497 1704407 0 0 0 0 0 0 0 0 0 58669661 
0.001 57137234 166151 1889850 0 0 0 0 0 0 0 0 0 59193235 
0.001122018 57304795 212345 2075829 0 0 0 0 0 0 0 0 0 59592969 
0.001258925 57591745 265836 2267221 0 0 0 0 0 0 0 0 0 60124801 
0.001412538 57845891 326052 2436854 0 0 0 0 0 0 0 0 0 60608796 
0.001584893 58076060 384944 2567409 0 0 0 0 0 0 0 0 0 61028413 
0.001778279 58358599 490962 2886308 0 0 0 0 0 0 0 0 0 61735869 
0.001995262 58570737 606270 3188237 0 0 0 0 0 0 0 0 0 62365244 
0.002238721 58844542 736277 3472515 0 0 0 0 0 0 0 0 0 63053333 
0.002511886 59099392 877674 3751723 0 0 0 0 0 0 0 0 0 63728789 
0.002818383 59429525 1029425 4009029 0 0 0 0 0 0 0 0 0 64467978 
0.003162278 59652658 1189654 4250053 0 0 0 0 0 0 0 0 0 65092364 
0.003548134 59825648 1354389 4481540 0 0 0 0 0 0 0 0 0 65661577 
0.003981072 59957181 1533283 4693476 0 0 0 0 0 0 0 0 0 66183940 
0.004466836 60015579 1704432 4883733 0 0 0 0 0 0 0 0 0 66603743 
0.005011872 59974898 1888723 5059047 0 0 0 0 0 0 0 0 0 66922667 
0.005623413 59794282 2078095 5228946 0 0 0 0 0 0 0 0 0 67101322 
0.006309573 59450782 2262380 5361572 0 0 0 0 0 0 0 0 0 67074734 
0.007079458 58926113 2440093 5468801 0 0 0 0 0 0 0 0 0 66835007 
0.007943282 58242957 2621305 5580273 0 0 0 0 0 0 0 0 0 66444536 
0.008912509 57362377 2789272 5642381 0 0 0 0 0 0 0 0 0 65794029 
0.01 56308542 2957010 5700071 0 0 0 0 0 0 0 0 0 64965623 
0.01122018 54958989 3109339 5737596 0 0 0 0 0 0 0 0 0 63805924 
0.01258925 53439876 3253718 5761727 0 0 0 0 0 0 0 0 0 62455321 
0.01412538 51762413 3372153 5738951 0 0 0 0 0 0 0 0 0 60873517 
0.01584893 49838838 3491928 5713677 0 0 0 0 0 0 0 0 0 59044443 
0.01778279 47786295 3585057 5656861 0 0 0 0 0 0 0 0 0 57028213 
0.01995262 45546392 3666062 5591761 0 0 0 0 0 0 0 0 0 54804215 
0.02238721 43181022 3727414 5503974 0 0 0 0 0 0 0 0 0 52412410 
0.02511886 40794911 3772510 5404145 0 0 0 0 0 0 0 0 0 49971565 
0.02818383 38311729 3781396 5274501 0 0 0 0 0 0 0 0 0 47367626 
0.03162278 35951073 3788063 5143547 0 0 0 0 0 0 0 0 0 44882683 
0.03548134 33518697 3766611 4966064 0 0 0 0 0 0 0 0 0 42251372 
0.03981072 31115311 3721027 4804803 0 0 0 0 0 0 0 0 0 39641141 
0.04466836 28633046 3656383 4624132 0 0 0 0 0 0 0 0 0 36913560 
0.05011872 25569951 3602059 4454616 0 0 0 0 0 0 0 0 0 33626627 
0.05623413 23353548 3503519 4252370 0 0 0 0 0 0 0 0 0 31109437 
0.06309573 21288544 3389162 4055205 0 0 0 0 0 0 0 0 0 28732911 
0.07079458 19382838 3255721 3833095 0 0 0 0 0 0 0 0 0 26471654 
0.07943282 17619394 3108087 3608035 0 0 0 0 0 0 0 0 0 24335516 
0.08912509 16001265 2947313 3395314 0 0 0 0 0 0 0 0 0 22343893 
0.1 14629239 2802199 3187127 0 0 0 0 0 0 0 0 0 20618564 
0.1122018 13443322 2612182 2948555 348861 365383 0 0 0 0 0 0 0 19718301 
0.1258925 12427022 2432515 2700573 511693 522951 0 3534 4223 0 0 0 0 18602509 
0.1412538 11521097 2235624 2452694 608560 620502 0 5039 5883 0 0 0 0 17449398 
0.1584893 10465239 2030683 2218157 708870 719064 0 6225 6623 0 0 0 0 16154860 
0.1778279 9314100 1848394 2002475 807336 816229 0 6964 7834 0 0 0 0 14803332 
0.1995262 8244721 1677845 1801863 910443 905024 0 8574 9129 0 0 0 0 13557598 
0.2238721 7266121 1506997 1611658 998213 985127 0 9225 10308 0 0 0 0 12387648 
0.2511886 6351521 1342684 1413682 1081448 1052772 0 10116 11183 0 0 0 0 11263406 
0.2818383 5520687 1183454 1240338 1156018 1111943 0 10998 12055 4357951 477940 0 12 15071393 
0.3162278 4788912 1043984 1089527 1205778 1148522 0 11949 12540 30484373 3229136 30 36 43014786 
0.3548134 4143936 914207 950735 1250546 1173737 0 12635 13108 34042261 3759995 30 60 46261248 
0.3981072 3569148 806262 835200 1279459 1190701 0 13384 13358 36283088 4284381 42 2481 48277503 
0.4466836 3052290 702766 720728 1299061 1196512 0 13459 14121 37848832 4654978 60 12074 49514879 
0.5011872 2593857 603144 619666 1302889 1183447 0 13959 14457 31400353 4838785 72 15536 42586164 
0.5623413 2195818 523432 531433 1303703 1179787 0 14152 13562 24445649 4868715 96 15826 35092172 
0.6309573 1851075 447111 452999 1298843 1161803 0 13089 13508 19465915 4842427 162 12072 29559003 
0.7079458 1563376 383392 386349 1286654 1137975 0 13141 13242 14473587 4850718 198 7542 24116173 
0.7943282 1321973 327548 332769 1263722 1118403 0 12457 12532 11257863 4944575 216 5229 20597287 
0.8912509 1113332 284189 286576 1239153 1085711 0 12651 12380 9684799 4942742 240 4172 18665944 
1.0 933984 239277 241166 1209441 1054491 0 12333 12053 8188656 4829137 342 3654 16724533 
1.122018 784610 203031 202459 1164244 1018545 0 11905 11555 6724999 4616065 432 3388 14741234 
1.258925 657626 171017 170665 1127034 977977 0 11466 11039 5510769 4342373 438 3665 12984069 
1.412538 553663 143203 142175 1083034 937851 0 10626 10461 4510952 3980269 594 4289 11377115 
1.584893 465471 120893 120088 1031386 888711 0 10648 9968 3623666 3590799 690 4507 9866827 
1.778279 384228 102193 100608 977342 848348 0 10019 9555 2916447 3218276 852 5597 8573466 
1.995262 323977 84886 86412 927415 799600 0 10080 9388 2412999 2862088 1026 5987 7523858 
2.238721 269850 71438 68640 872886 752215 0 9036 8889 2000008 2549800 972 7101 6610834 
2.511886 223318 58183 58163 822071 703674 0 9605 8630 1661640 2281472 1188 8206 5836148 
2.818383 187110 49578 48262 764942 657725 0 8698 8559 1404009 2011124 1416 8726 5150147 
3.162278 155734 40172 40919 713123 608855 0 8118 7635 1196755 1774520 1488 8881 4556200 
3.548134 130652 33846 33888 654396 565426 0 7453 7600 1011726 1545758 1662 9402 4001807 
3.981072 108400 27906 27677 598601 513773 0 7589 6731 837567 1330517 1638 9366 3469763 
4.466836 89505 22554 22944 548123 474737 0 7253 6551 686699 1122770 1896 9808 2992840 
5.011872 73709 18330 18294 496078 425901 0 6894 6762 565090 945818 1614 9456 2567945 
5.623413 62070 14622 14886 450513 384037 0 6924 6390 470352 807843 1530 9209 2228374 
6.309573 50598 12756 12270 400802 342688 0 6276 5748 395372 682916 1692 8903 1920021 
7.079458 41142 10116 10002 358532 307381 0 5928 5598 330914 576585 1680 9042 1656920 
7.943282 34704 8310 8466 317275 267369 0 5772 5232 274068 476989 1428 7823 1407436 
8.912509 28542 6660 6462 283147 231882 0 5244 5070 225927 398830 1392 7327 1200481 
10.0 22590 5274 5526 245454 203334 0 4896 4518 185586 327564 1278 6419 1012437 
11.22018 18684 4332 4410 217422 175680 0 4902 4098 153382 269697 1230 5779 859615 
12.58925 15174 3738 3708 188574 146832 0 4398 3972 125703 219663 1116 5046 717924 
14.12538 12552 3102 2922 163092 124584 0 4242 3534 100558 180137 1146 4712 600582 
15.84893 10062 2448 2490 138696 105768 0 3984 3534 80562 146092 972 4054 498661 
17.78279 8058 1800 1818 118968 88908 0 3456 2982 64410 117498 726 3629 412253 
19.95262 6642 1500 1374 97836 71904 0 3204 2814 52998 97422 708 2898 339300 
22.38721 5346 1284 1182 80646 60294 0 3006 2376 42450 79368 552 2513 279017 
25.11886 4464 960 1074 66780 48936 0 2526 2058 35448 64254 492 2184 229176 
28.18383 3696 834 858 53838 40788 0 2478 2130 28236 53064 408 1992 188322 
31.62278 2898 558 666 43164 33462 0 2256 1836 22500 42744 270 1392 151746 
35.48134 2262 450 450 34458 27354 0 2172 1542 18876 36462 318 1230 125574 
39.81072 1860 456 432 27792 21594 0 1854 1452 15288 28842 198 1116 100884 
44.66836 1464 402 372 21570 18036 0 1440 1278 12654 23310 198 894 81618 
50.11872 1104 234 336 16896 14664 0 1326 1116 9018 19224 138 684 64740 
56.23413 1062 204 294 14142 11562 0 1212 1038 6600 14544 66 618 51342 
63.09573 894 234 144 10674 9756 0 948 816 4698 11088 120 534 39906 
70.79458 714 168 120 9444 7818 0 912 720 3990 9006 54 558 33504 
79.43282 390 114 126 7356 6504 0 708 636 3876 10314 90 390 30504 
89.12509 444 102 138 5796 4836 0 738 552 3198 7848 60 336 24048 
100.0 348 114 90 4926 3846 0 588 480 2538 6384 78 204 19596 
112.2018 270 78 90 3714 3072 0 486 366 2076 5544 42 258 15996 
125.8925 264 30 48 2988 2538 0 462 366 1494 4242 54 210 12696 
141.2538 144 30 36 2262 1992 0 366 252 1284 3198 48 192 9804 
158.4893 114 36 36 1908 1560 0 300 318 1050 2910 24 180 8436 
177.8279 174 12 36 1488 1266 0 222 204 1002 2310 24 108 6846 
199.5262 78 36 18 1074 948 0 222 168 768 1716 12 114 5154 
223.8721 96 24 12 786 690 0 168 120 582 1500 12 126 4116 
251.1886 84 24 12 732 594 0 162 144 552 1176 12 90 3582 
281.8383 48 18 0 516 468 0 114 168 396 912 0 36 2676 
316.2278 66 6 36 402 378 0 144 84 372 780 6 48 2322 
354.8134 36 12 6 384 306 0 78 36 294 720 6 42 1920 
398.1072 24 6 0 282 216 0 60 72 168 492 12 30 1362 
446.6836 48 0 12 168 168 0 60 78 132 438 12 42 1158 
501.1872 24 12 0 162 186 0 90 66 144 264 12 6 966 
562.3413 30 0 0 132 96 0 90 42 162 240 6 18 816 
630.9573 18 0 6 84 72 0 30 18 54 174 12 24 492 
707.9458 24 0 0 78 60 0 18 18 60 228 0 6 492 
794.3282 18 0 0 72 42 0 18 18 54 138 0 12 372 
891.2509 6 6 0 42 42 0 24 6 24 102 0 6 258 
1000.0 6 6 0 12 18 0 12 12 30 144 0 0 240 
1122.018 18 0 0 18 18 0 0 12 42 108 0 12 228 
1258.925 0 0 0 6 24 0 6 0 18 48 0 6 108 
1412.538 0 0 0 0 0 0 12 6 30 72 0 18 138 
1584.893 0 6 0 6 6 0 24 0 12 30 0 0 84 
1778.279 0 0 0 0 0 0 6 0 6 36 0 0 48 
1995.262 0 0 0 0 12 0 6 0 6 42 0 6 72 
2238.721 0 0 0 0 6 0 6 6 18 30 0 0 66 
2511.886 0 0 0 0 6 0 0 0 18 12 0 0 36 
2818.383 0 0 0 0 6 0 6 0 18 6 0 0 36 
3162.278 0 0 0 0 0 0 6 0 0 18 0 0 24 
3548.134 0 0 0 0 0 0 0 6 6 6 0 0 18 
3981.072 0 0 0 0 0 0 0 0 0 6 0 0 6 
4466.836 0 0 0 0 0 0 0 0 6 0 0 0 6 
5011.872 0 0 0 0 0 0 0 0 6 12 0 0 18 
5623.413 0 0 0 0 0 0 0 0 0 6 0 0 6 
6309.573 0 0 0 0 0 0 0 0 0 0 0 0 0 
7079.458 0 0 0 0 0 0 0 6 0 6 0 0 12 
7943.282 6 0 0 0 0 0 0 0 0 0 0 0 6 
8912.509 0 0 0 0 0 0 0 0 0 0 0 0 0 
10000.0 0 0 0 0 0 0 0 0 0 0 0 0 0 
11220.18 0 0 0 0 0 0 0 0 0 0 0 0 0 
12589.25 0 0 0 0 0 0 0 0 0 0 0 0 0 
14125.38 0 0 0 0 0 0 0 0 0 0 0 0 0 
15848.93 0 0 0 0 0 0 0 0 0 0 0 0 0 
17782.79 0 0 0 0 0 0 0 0 0 0 0 0 0 
19952.62 0 0 0 0 0 0 0 0 0 0 0 0 0 
22387.21 0 0 0 0 0 0 0 0 0 0 0 0 0 
25118.86 0 0 0 0 0 0 0 0 6 0 0 0 6 
